SpectraSuite Data File
++++++++++++++++++++++++++++++++++++
Date: Mon Aug 28 15:01:00 CEST 2023
User: TAMINATOR
Spectrometer Serial Number: FLMS04432
Spectrometer Channel: 0
Integration Time (usec): 300000
Spectra Averaged: 1
Boxcar Smoothing: 0
Correct for Electrical Dark: No
Strobe/Lamp Enabled: No
Correct for Detector Non-linearity: No
Correct for Stray Light: No
Number of Pixels in Spectrum: 2048
>>>>>Begin Spectral Data<<<<<
188.46	2177.218
188.85	2177.218
189.24	2177.218
189.63	2252.462
190.02	2213.627
190.41	2235.472
190.80	2247.608
191.19	2267.026
191.58	2250.035
191.96	2254.889
192.35	2298.579
192.74	2296.152
193.13	2364.114
193.52	2432.077
193.91	2390.814
194.30	2398.096
194.69	2490.330
195.08	2480.621
195.47	2461.203
195.86	2531.593
196.24	3463.646
196.63	2592.273
197.02	2461.203
197.41	2543.729
197.80	2514.602
198.19	2563.147
198.58	2580.137
198.96	2616.546
199.35	2618.973
199.74	2667.517
200.13	2589.846
200.52	2713.634
200.91	2699.071
201.29	2640.818
201.68	2616.546
202.07	2582.564
202.46	2694.217
202.85	2589.846
203.24	2565.574
203.62	2597.128
204.01	2580.137
204.40	2631.109
204.79	2699.071
205.17	2657.808
205.56	2679.653
205.95	2713.634
206.34	2594.701
206.73	2609.264
207.11	2500.039
207.50	2648.099
207.89	2616.546
208.28	2633.536
208.66	2660.236
209.05	2660.236
209.44	2665.090
209.83	2655.381
210.21	2614.118
210.60	2643.245
210.99	2628.682
211.37	2718.489
211.76	2650.527
212.15	2614.118
212.54	2614.118
212.92	2689.362
213.31	2667.517
213.70	2652.954
214.08	2623.827
214.47	2618.973
214.86	2589.846
215.24	2597.128
215.63	2604.409
216.02	2677.226
216.40	2660.236
216.79	2626.254
217.18	2655.381
217.56	2648.099
217.95	2645.672
218.33	2609.264
218.72	2592.273
219.11	2626.254
219.49	2621.400
219.88	2601.982
220.27	2631.109
220.65	2657.808
221.04	2601.982
221.42	2691.789
221.81	2638.391
222.20	2633.536
222.58	2582.564
222.97	2594.701
223.35	2696.644
223.74	2587.419
224.13	2599.555
224.51	2536.447
224.90	2560.719
225.28	2577.710
225.67	2650.527
226.05	2645.672
226.44	2594.701
226.82	2640.818
227.21	2597.128
227.59	2682.081
227.98	2703.926
228.36	2614.118
228.75	2686.935
229.14	2684.508
229.52	2614.118
229.91	2699.071
230.29	2652.954
230.68	2601.982
231.06	2631.109
231.45	2551.011
231.83	2657.808
232.21	2628.682
232.60	2618.973
232.98	2648.099
233.37	2601.982
233.75	2611.691
234.14	2631.109
234.52	2553.438
234.91	2626.254
235.29	2614.118
235.68	2633.536
236.06	2662.663
236.44	2667.517
236.83	2626.254
237.21	2618.973
237.60	2652.954
237.98	2604.409
238.37	2713.634
238.75	2616.546
239.13	2640.818
239.52	2623.827
239.90	2648.099
240.29	2558.292
240.67	2674.799
241.05	2643.245
241.44	2691.789
241.82	2635.963
242.20	2684.508
242.59	2665.090
242.97	2623.827
243.35	2609.264
243.74	2601.982
244.12	2640.818
244.51	2558.292
244.89	2609.264
245.27	2674.799
245.66	2628.682
246.04	2618.973
246.42	2645.672
246.80	2650.527
247.19	2674.799
247.57	2660.236
247.95	2674.799
248.34	2660.236
248.72	2638.391
249.10	2626.254
249.49	2599.555
249.87	2665.090
250.25	2623.827
250.63	2684.508
251.02	2635.963
251.40	2635.963
251.78	2679.653
252.16	2628.682
252.55	2699.071
252.93	2718.489
253.31	2548.583
253.69	2599.555
254.08	2689.362
254.46	2701.498
254.84	2584.992
255.22	2655.381
255.60	2640.818
255.99	2706.353
256.37	2609.264
256.75	2686.935
257.13	2655.381
257.51	2604.409
257.90	2606.837
258.28	2699.071
258.66	2703.926
259.04	2699.071
259.42	2682.081
259.81	2655.381
260.19	2657.808
260.57	2737.907
260.95	2677.226
261.33	2672.372
261.71	2611.691
262.09	2665.090
262.48	2701.498
262.86	2635.963
263.24	2667.517
263.62	2706.353
264.00	2660.236
264.38	2696.644
264.76	2640.818
265.14	2587.419
265.53	2718.489
265.91	2618.973
266.29	2640.818
266.67	2618.973
267.05	2674.799
267.43	2648.099
267.81	2669.944
268.19	2575.283
268.57	2626.254
268.95	2679.653
269.33	2660.236
269.71	2638.391
270.09	2643.245
270.47	2601.982
270.85	2662.663
271.23	2745.188
271.62	2699.071
272.00	2677.226
272.38	2754.897
272.76	2643.245
273.14	2597.128
273.52	2648.099
273.90	2713.634
274.28	2616.546
274.66	2716.062
275.04	2752.470
275.42	2737.907
275.80	2674.799
276.18	2674.799
276.55	2655.381
276.93	2611.691
277.31	2652.954
277.69	2660.236
278.07	2640.818
278.45	2563.147
278.83	2643.245
279.21	2638.391
279.59	2667.517
279.97	2623.827
280.35	2628.682
280.73	2584.992
281.11	2650.527
281.49	2689.362
281.87	2662.663
282.25	2616.546
282.62	2730.625
283.00	2652.954
283.38	2672.372
283.76	2706.353
284.14	2621.400
284.52	2633.536
284.90	2628.682
285.28	2667.517
285.65	2626.254
286.03	2725.771
286.41	2633.536
286.79	2650.527
287.17	2611.691
287.55	2635.963
287.93	2577.710
288.30	2662.663
288.68	2633.536
289.06	2648.099
289.44	2631.109
289.82	2655.381
290.20	2652.954
290.57	2657.808
290.95	2621.400
291.33	2691.789
291.71	2577.710
292.09	2599.555
292.46	2689.362
292.84	2623.827
293.22	2672.372
293.60	2645.672
293.97	2781.597
294.35	2594.701
294.73	2677.226
295.11	2725.771
295.48	2674.799
295.86	2655.381
296.24	2725.771
296.62	2592.273
296.99	2645.672
297.37	2679.653
297.75	2563.147
298.13	2674.799
298.50	2589.846
298.88	2665.090
299.26	2657.808
299.63	2730.625
300.01	2611.691
300.39	2606.837
300.77	2650.527
301.14	2626.254
301.52	2667.517
301.90	2589.846
302.27	2703.926
302.65	2711.207
303.03	2708.780
303.40	2611.691
303.78	2713.634
304.16	2631.109
304.53	2643.245
304.91	2638.391
305.28	2584.992
305.66	2645.672
306.04	2682.081
306.41	2575.283
306.79	2635.963
307.17	2677.226
307.54	2640.818
307.92	2706.353
308.29	2648.099
308.67	2631.109
309.05	2669.944
309.42	2686.935
309.80	2699.071
310.17	2655.381
310.55	2740.334
310.92	2667.517
311.30	2626.254
311.68	2677.226
312.05	2616.546
312.43	2614.118
312.80	2611.691
313.18	2631.109
313.55	2689.362
313.93	2655.381
314.30	2618.973
314.68	2662.663
315.05	2633.536
315.43	2618.973
315.80	2611.691
316.18	2660.236
316.55	2652.954
316.93	2604.409
317.30	2674.799
317.68	2720.916
318.05	2711.207
318.43	2638.391
318.80	2618.973
319.18	2665.090
319.55	2555.865
319.93	2638.391
320.30	2679.653
320.68	2616.546
321.05	2655.381
321.43	2667.517
321.80	2679.653
322.17	2657.808
322.55	2655.381
322.92	2660.236
323.30	2665.090
323.67	2643.245
324.05	2699.071
324.42	2699.071
324.79	2648.099
325.17	2582.564
325.54	2667.517
325.92	2672.372
326.29	2604.409
326.66	2669.944
327.04	2638.391
327.41	2723.343
327.78	2696.644
328.16	2623.827
328.53	2657.808
328.91	2684.508
329.28	2689.362
329.65	2703.926
330.03	2735.479
330.40	2631.109
330.77	2679.653
331.15	2711.207
331.52	2601.982
331.89	2635.963
332.27	2643.245
332.64	2628.682
333.01	2735.479
333.38	2652.954
333.76	2703.926
334.13	2735.479
334.50	2660.236
334.88	2626.254
335.25	2638.391
335.62	2723.343
335.99	2665.090
336.37	2638.391
336.74	2689.362
337.11	2718.489
337.48	2689.362
337.86	2631.109
338.23	2708.780
338.60	2711.207
338.97	2657.808
339.35	2638.391
339.72	2691.789
340.09	2667.517
340.46	2584.992
340.84	2674.799
341.21	2679.653
341.58	2691.789
341.95	2631.109
342.32	2750.043
342.70	2669.944
343.07	2788.878
343.44	2604.409
343.81	2696.644
344.18	2691.789
344.55	2662.663
344.93	2609.264
345.30	2589.846
345.67	2665.090
346.04	2604.409
346.41	2594.701
346.78	2660.236
347.15	2723.343
347.53	2674.799
347.90	2682.081
348.27	2691.789
348.64	2657.808
349.01	2568.001
349.38	2713.634
349.75	2682.081
350.12	2667.517
350.49	2621.400
350.87	2631.109
351.24	2669.944
351.61	2652.954
351.98	2674.799
352.35	2652.954
352.72	2652.954
353.09	2720.916
353.46	2580.137
353.83	2645.672
354.20	2735.479
354.57	2599.555
354.94	2696.644
355.31	2645.672
355.68	2723.343
356.05	2689.362
356.42	2626.254
356.79	2621.400
357.16	2568.001
357.53	2674.799
357.90	2589.846
358.27	2718.489
358.64	2686.935
359.01	2631.109
359.38	2655.381
359.75	2679.653
360.12	2754.897
360.49	2737.907
360.86	2614.118
361.23	2645.672
361.60	2609.264
361.97	2665.090
362.34	2696.644
362.71	2662.663
363.08	2582.564
363.45	2699.071
363.82	2669.944
364.19	2655.381
364.56	2672.372
364.93	2677.226
365.30	2609.264
365.66	2672.372
366.03	2684.508
366.40	2677.226
366.77	2572.856
367.14	2645.672
367.51	2657.808
367.88	2635.963
368.25	2626.254
368.62	2696.644
368.98	2679.653
369.35	2669.944
369.72	2626.254
370.09	2703.926
370.46	2631.109
370.83	2677.226
371.20	2618.973
371.56	2703.926
371.93	2679.653
372.30	2677.226
372.67	2718.489
373.04	2733.052
373.41	2631.109
373.77	2672.372
374.14	2699.071
374.51	2682.081
374.88	2640.818
375.25	2711.207
375.61	2682.081
375.98	2667.517
376.35	2643.245
376.72	2633.536
377.08	2628.682
377.45	2628.682
377.82	2708.780
378.19	2716.062
378.55	2652.954
378.92	2689.362
379.29	2689.362
379.66	2735.479
380.02	2645.672
380.39	2643.245
380.76	2638.391
381.13	2638.391
381.49	2635.963
381.86	2669.944
382.23	2599.555
382.59	2669.944
382.96	2660.236
383.33	2737.907
383.70	2730.625
384.06	2655.381
384.43	2643.245
384.80	2682.081
385.16	2594.701
385.53	2638.391
385.90	2640.818
386.26	2672.372
386.63	2648.099
387.00	2575.283
387.36	2616.546
387.73	2570.428
388.09	2716.062
388.46	2728.198
388.83	2682.081
389.19	2689.362
389.56	2684.508
389.93	2733.052
390.29	2672.372
390.66	2667.517
391.02	2682.081
391.39	2645.672
391.75	2718.489
392.12	2716.062
392.49	2563.147
392.85	2730.625
393.22	2694.217
393.58	2648.099
393.95	2737.907
394.31	2672.372
394.68	2643.245
395.05	2699.071
395.41	2606.837
395.78	2701.498
396.14	2638.391
396.51	2706.353
396.87	2686.935
397.24	2558.292
397.60	2628.682
397.97	2703.926
398.33	2640.818
398.70	2631.109
399.06	2674.799
399.43	2694.217
399.79	2684.508
400.16	2696.644
400.52	2609.264
400.89	2640.818
401.25	2660.236
401.62	2752.470
401.98	2640.818
402.35	2616.546
402.71	2696.644
403.07	2711.207
403.44	2635.963
403.80	2672.372
404.17	2635.963
404.53	2689.362
404.90	2706.353
405.26	2669.944
405.62	2672.372
405.99	2708.780
406.35	2657.808
406.72	2674.799
407.08	2769.461
407.44	2648.099
407.81	2618.973
408.17	2718.489
408.54	2660.236
408.90	2677.226
409.26	2626.254
409.63	2601.982
409.99	2711.207
410.35	2657.808
410.72	2660.236
411.08	2728.198
411.44	2691.789
411.81	2638.391
412.17	2616.546
412.53	2677.226
412.90	2735.479
413.26	2648.099
413.62	2679.653
413.99	2674.799
414.35	2684.508
414.71	2655.381
415.08	2689.362
415.44	2720.916
415.80	2718.489
416.16	2689.362
416.53	2733.052
416.89	2672.372
417.25	2648.099
417.61	2623.827
417.98	2716.062
418.34	2601.982
418.70	2701.498
419.06	2718.489
419.43	2706.353
419.79	2568.001
420.15	2657.808
420.51	2696.644
420.88	2662.663
421.24	2660.236
421.60	2635.963
421.96	2669.944
422.32	2650.527
422.69	2589.846
423.05	2706.353
423.41	2635.963
423.77	2735.479
424.13	2779.169
424.50	2577.710
424.86	2650.527
425.22	2713.634
425.58	2635.963
425.94	2618.973
426.30	2684.508
426.67	2740.334
427.03	2616.546
427.39	2665.090
427.75	2713.634
428.11	2694.217
428.47	2604.409
428.83	2606.837
429.19	2665.090
429.56	2737.907
429.92	2611.691
430.28	2643.245
430.64	2640.818
431.00	2626.254
431.36	2609.264
431.72	2672.372
432.08	2677.226
432.44	2643.245
432.80	2742.761
433.16	2733.052
433.52	2633.536
433.89	2674.799
434.25	2691.789
434.61	2616.546
434.97	2767.033
435.33	2701.498
435.69	2616.546
436.05	2643.245
436.41	2684.508
436.77	2652.954
437.13	2711.207
437.49	2631.109
437.85	2706.353
438.21	2674.799
438.57	2652.954
438.93	2716.062
439.29	2648.099
439.65	2650.527
440.01	2621.400
440.37	2589.846
440.73	2703.926
441.09	2631.109
441.45	2711.207
441.81	2652.954
442.16	2713.634
442.52	2597.128
442.88	2677.226
443.24	2691.789
443.60	2711.207
443.96	2718.489
444.32	2655.381
444.68	2616.546
445.04	2682.081
445.40	2716.062
445.76	2716.062
446.12	2635.963
446.48	2679.653
446.83	2672.372
447.19	2650.527
447.55	2669.944
447.91	2713.634
448.27	2662.663
448.63	2618.973
448.99	2662.663
449.34	2648.099
449.70	2606.837
450.06	2735.479
450.42	2733.052
450.78	2599.555
451.14	2703.926
451.50	2645.672
451.85	2626.254
452.21	2684.508
452.57	2665.090
452.93	2621.400
453.29	2611.691
453.64	2776.742
454.00	2606.837
454.36	2694.217
454.72	2745.188
455.08	2667.517
455.43	2633.536
455.79	2723.343
456.15	2757.324
456.51	2655.381
456.86	2674.799
457.22	2696.644
457.58	2660.236
457.94	2667.517
458.29	2650.527
458.65	2747.616
459.01	2660.236
459.37	2701.498
459.72	2660.236
460.08	2633.536
460.44	2672.372
460.79	2735.479
461.15	2696.644
461.51	2648.099
461.86	2628.682
462.22	2580.137
462.58	2626.254
462.94	2699.071
463.29	2713.634
463.65	2689.362
464.01	2635.963
464.36	2655.381
464.72	2740.334
465.08	2655.381
465.43	2657.808
465.79	2708.780
466.14	2626.254
466.50	2701.498
466.86	2616.546
467.21	2699.071
467.57	2701.498
467.93	2689.362
468.28	2584.992
468.64	2733.052
468.99	2609.264
469.35	2686.935
469.71	2662.663
470.06	2750.043
470.42	2728.198
470.77	2713.634
471.13	2640.818
471.48	2706.353
471.84	2677.226
472.20	2633.536
472.55	2650.527
472.91	2740.334
473.26	2679.653
473.62	2621.400
473.97	2633.536
474.33	2638.391
474.68	2628.682
475.04	2657.808
475.39	2691.789
475.75	2628.682
476.10	2708.780
476.46	2665.090
476.81	2665.090
477.17	2725.771
477.52	2694.217
477.88	2609.264
478.23	2674.799
478.59	2587.419
478.94	2611.691
479.30	2655.381
479.65	2815.578
480.01	2582.564
480.36	2665.090
480.72	2618.973
481.07	2660.236
481.42	2614.118
481.78	2691.789
482.13	2684.508
482.49	2694.217
482.84	2706.353
483.20	2677.226
483.55	2643.245
483.90	2665.090
484.26	2606.837
484.61	2728.198
484.96	2713.634
485.32	2672.372
485.67	2699.071
486.03	2650.527
486.38	2740.334
486.73	2674.799
487.09	2594.701
487.44	2657.808
487.79	2575.283
488.15	2682.081
488.50	2703.926
488.85	2682.081
489.21	2762.179
489.56	2677.226
489.91	2716.062
490.27	2665.090
490.62	2686.935
490.97	2660.236
491.33	2694.217
491.68	2669.944
492.03	2669.944
492.39	2650.527
492.74	2652.954
493.09	2674.799
493.44	2652.954
493.80	2686.935
494.15	2672.372
494.50	2696.644
494.85	2650.527
495.21	2628.682
495.56	2635.963
495.91	2594.701
496.26	2621.400
496.62	2740.334
496.97	2635.963
497.32	2679.653
497.67	2716.062
498.03	2691.789
498.38	2662.663
498.73	2684.508
499.08	2604.409
499.43	2733.052
499.79	2584.992
500.14	2609.264
500.49	2592.273
500.84	2648.099
501.19	2640.818
501.54	2677.226
501.90	2626.254
502.25	2696.644
502.60	2645.672
502.95	2754.897
503.30	2582.564
503.65	2679.653
504.00	2587.419
504.36	2645.672
504.71	2635.963
505.06	2672.372
505.41	2696.644
505.76	2713.634
506.11	2669.944
506.46	2708.780
506.81	2662.663
507.16	2655.381
507.52	2635.963
507.87	2696.644
508.22	2580.137
508.57	2677.226
508.92	2626.254
509.27	2665.090
509.62	2631.109
509.97	2752.470
510.32	2805.869
510.67	2669.944
511.02	2568.001
511.37	2667.517
511.72	2679.653
512.07	2706.353
512.42	2706.353
512.77	2703.926
513.12	2747.616
513.47	2720.916
513.82	2669.944
514.17	2694.217
514.52	2723.343
514.87	2609.264
515.22	2696.644
515.57	2686.935
515.92	2621.400
516.27	2621.400
516.62	2631.109
516.97	2728.198
517.32	2665.090
517.67	2594.701
518.02	2677.226
518.37	2701.498
518.72	2643.245
519.07	2616.546
519.42	2652.954
519.77	2708.780
520.12	2682.081
520.46	2657.808
520.81	2713.634
521.16	2735.479
521.51	2648.099
521.86	2706.353
522.21	2645.672
522.56	2655.381
522.91	2601.982
523.26	2611.691
523.60	2723.343
523.95	2674.799
524.30	2723.343
524.65	2614.118
525.00	2677.226
525.35	2611.691
525.70	2626.254
526.04	2684.508
526.39	2672.372
526.74	2805.869
527.09	2614.118
527.44	2650.527
527.78	2694.217
528.13	2638.391
528.48	2599.555
528.83	2657.808
529.18	2643.245
529.52	2679.653
529.87	2660.236
530.22	2621.400
530.57	2674.799
530.92	2745.188
531.26	2682.081
531.61	2667.517
531.96	2677.226
532.31	2665.090
532.65	2640.818
533.00	2754.897
533.35	2762.179
533.70	2640.818
534.04	2718.489
534.39	2696.644
534.74	2684.508
535.08	2640.818
535.43	2657.808
535.78	2628.682
536.13	2665.090
536.47	2660.236
536.82	2609.264
537.17	2665.090
537.51	2665.090
537.86	2631.109
538.21	2667.517
538.55	2762.179
538.90	2611.691
539.25	2592.273
539.59	2594.701
539.94	2694.217
540.29	2616.546
540.63	2643.245
540.98	2633.536
541.32	2701.498
541.67	2645.672
542.02	2650.527
542.36	2696.644
542.71	2691.789
543.05	2672.372
543.40	2679.653
543.75	2667.517
544.09	2684.508
544.44	2740.334
544.78	2633.536
545.13	2706.353
545.48	2703.926
545.82	2679.653
546.17	2682.081
546.51	2652.954
546.86	2645.672
547.20	2713.634
547.55	2657.808
547.89	2648.099
548.24	2759.752
548.58	2684.508
548.93	2694.217
549.28	2694.217
549.62	2689.362
549.97	2725.771
550.31	2577.710
550.66	2689.362
551.00	2684.508
551.34	2609.264
551.69	2694.217
552.03	2650.527
552.38	2638.391
552.72	2660.236
553.07	2635.963
553.41	2708.780
553.76	2609.264
554.10	2694.217
554.45	2716.062
554.79	2626.254
555.14	2754.897
555.48	2708.780
555.82	2733.052
556.17	2708.780
556.51	2611.691
556.86	2694.217
557.20	2657.808
557.54	2669.944
557.89	2682.081
558.23	2730.625
558.58	2689.362
558.92	2699.071
559.26	2725.771
559.61	2677.226
559.95	2682.081
560.29	2618.973
560.64	2599.555
560.98	2655.381
561.33	2665.090
561.67	2691.789
562.01	2733.052
562.36	2679.653
562.70	2650.527
563.04	2665.090
563.39	2691.789
563.73	2665.090
564.07	2730.625
564.41	2740.334
564.76	2694.217
565.10	2691.789
565.44	2597.128
565.79	2628.682
566.13	2662.663
566.47	2582.564
566.81	2686.935
567.16	2713.634
567.50	2669.944
567.84	2623.827
568.18	2643.245
568.53	2674.799
568.87	2708.780
569.21	2648.099
569.55	2720.916
569.90	2725.771
570.24	2621.400
570.58	2652.954
570.92	2699.071
571.27	2667.517
571.61	2645.672
571.95	2672.372
572.29	2662.663
572.63	2759.752
572.97	2665.090
573.32	2699.071
573.66	2691.789
574.00	2638.391
574.34	2701.498
574.68	2733.052
575.02	2643.245
575.37	2696.644
575.71	2606.837
576.05	2677.226
576.39	2611.691
576.73	2784.024
577.07	2645.672
577.41	2645.672
577.76	2606.837
578.10	2633.536
578.44	2665.090
578.78	2674.799
579.12	2645.672
579.46	2728.198
579.80	2667.517
580.14	2665.090
580.48	2674.799
580.82	2660.236
581.16	2643.245
581.51	2728.198
581.85	2699.071
582.19	2635.963
582.53	2716.062
582.87	2677.226
583.21	2633.536
583.55	2628.682
583.89	2568.001
584.23	2747.616
584.57	2689.362
584.91	2638.391
585.25	2689.362
585.59	2548.583
585.93	2662.663
586.27	2730.625
586.61	2674.799
586.95	2725.771
587.29	2601.982
587.63	2633.536
587.97	2609.264
588.31	2713.634
588.65	2665.090
588.99	2618.973
589.33	2623.827
589.67	2665.090
590.01	2665.090
590.34	2703.926
590.68	2635.963
591.02	2643.245
591.36	2699.071
591.70	2708.780
592.04	2674.799
592.38	2621.400
592.72	2691.789
593.06	2677.226
593.40	2618.973
593.74	2689.362
594.07	2643.245
594.41	2716.062
594.75	2679.653
595.09	2626.254
595.43	2652.954
595.77	2628.682
596.11	2665.090
596.44	2701.498
596.78	2684.508
597.12	2740.334
597.46	2660.236
597.80	2645.672
598.14	2720.916
598.47	2606.837
598.81	2677.226
599.15	2657.808
599.49	2645.672
599.83	2682.081
600.17	2699.071
600.50	2650.527
600.84	2577.710
601.18	2611.691
601.52	2716.062
601.85	2672.372
602.19	2614.118
602.53	2626.254
602.87	2745.188
603.20	2635.963
603.54	2672.372
603.88	2730.625
604.22	2718.489
604.55	2655.381
604.89	2553.438
605.23	2594.701
605.57	2701.498
605.90	2599.555
606.24	2640.818
606.58	2657.808
606.91	2633.536
607.25	2696.644
607.59	2645.672
607.92	2725.771
608.26	2713.634
608.60	2711.207
608.94	2645.672
609.27	2674.799
609.61	2640.818
609.94	2708.780
610.28	2677.226
610.62	2635.963
610.95	2713.634
611.29	2696.644
611.63	2745.188
611.96	2703.926
612.30	2689.362
612.64	2621.400
612.97	2616.546
613.31	2655.381
613.64	2728.198
613.98	2677.226
614.32	2696.644
614.65	2665.090
614.99	2718.489
615.32	2667.517
615.66	2640.818
615.99	2635.963
616.33	2689.362
616.67	2740.334
617.00	2679.653
617.34	2648.099
617.67	2650.527
618.01	2667.517
618.34	2686.935
618.68	2672.372
619.01	2621.400
619.35	2652.954
619.68	2665.090
620.02	2674.799
620.35	2662.663
620.69	2667.517
621.02	2711.207
621.36	2796.160
621.69	2767.033
622.03	2667.517
622.36	2703.926
622.70	2750.043
623.03	2716.062
623.37	2657.808
623.70	2645.672
624.04	2592.273
624.37	2648.099
624.70	2597.128
625.04	2669.944
625.37	2674.799
625.71	2730.625
626.04	2679.653
626.38	2762.179
626.71	2657.808
627.04	2713.634
627.38	2764.606
627.71	2750.043
628.05	2708.780
628.38	2742.761
628.71	2669.944
629.05	2674.799
629.38	2706.353
629.71	2589.846
630.05	2650.527
630.38	2662.663
630.72	2650.527
631.05	2645.672
631.38	2635.963
631.72	2652.954
632.05	2662.663
632.38	2691.789
632.72	2699.071
633.05	2606.837
633.38	2691.789
633.71	2643.245
634.05	2580.137
634.38	2706.353
634.71	2708.780
635.05	2754.897
635.38	2686.935
635.71	2660.236
636.04	2611.691
636.38	2648.099
636.71	2640.818
637.04	2694.217
637.38	2686.935
637.71	2667.517
638.04	2587.419
638.37	2638.391
638.70	2635.963
639.04	2689.362
639.37	2694.217
639.70	2791.306
640.03	2650.527
640.37	2733.052
640.70	2614.118
641.03	2718.489
641.36	2660.236
641.69	2609.264
642.03	2708.780
642.36	2623.827
642.69	2730.625
643.02	2633.536
643.35	2626.254
643.68	2623.827
644.02	2720.916
644.35	2667.517
644.68	2652.954
645.01	2733.052
645.34	2691.789
645.67	2662.663
646.00	2669.944
646.33	2735.479
646.67	2650.527
647.00	2652.954
647.33	2740.334
647.66	2672.372
647.99	2703.926
648.32	2691.789
648.65	2628.682
648.98	2696.644
649.31	2740.334
649.64	2640.818
649.97	2560.719
650.31	2621.400
650.64	2626.254
650.97	2682.081
651.30	2701.498
651.63	2621.400
651.96	2701.498
652.29	2665.090
652.62	2667.517
652.95	2682.081
653.28	2628.682
653.61	2628.682
653.94	2669.944
654.27	2679.653
654.60	2648.099
654.93	2708.780
655.26	2742.761
655.59	2643.245
655.92	2628.682
656.25	2650.527
656.58	2643.245
656.91	2703.926
657.24	2740.334
657.57	2563.147
657.90	2677.226
658.22	2589.846
658.55	2660.236
658.88	2648.099
659.21	2682.081
659.54	2703.926
659.87	2665.090
660.20	2652.954
660.53	2631.109
660.86	2652.954
661.19	2621.400
661.52	2674.799
661.85	2662.663
662.17	2701.498
662.50	2618.973
662.83	2696.644
663.16	2616.546
663.49	2589.846
663.82	2643.245
664.15	2660.236
664.47	2650.527
664.80	2640.818
665.13	2728.198
665.46	2667.517
665.79	2633.536
666.12	2701.498
666.44	2609.264
666.77	2638.391
667.10	2650.527
667.43	2691.789
667.76	2657.808
668.08	2597.128
668.41	2669.944
668.74	2667.517
669.07	2682.081
669.40	2689.362
669.72	2640.818
670.05	2628.682
670.38	2674.799
670.71	2614.118
671.03	2638.391
671.36	2657.808
671.69	2674.799
672.02	2660.236
672.34	2682.081
672.67	2674.799
673.00	2708.780
673.32	2699.071
673.65	2662.663
673.98	2725.771
674.31	2699.071
674.63	2618.973
674.96	2614.118
675.29	2638.391
675.61	2669.944
675.94	2711.207
676.27	2635.963
676.59	2652.954
676.92	2635.963
677.25	2677.226
677.57	2638.391
677.90	2689.362
678.23	2672.372
678.55	2708.780
678.88	2645.672
679.20	2606.837
679.53	2735.479
679.86	2643.245
680.18	2633.536
680.51	2601.982
680.83	2674.799
681.16	2713.634
681.49	2682.081
681.81	2648.099
682.14	2638.391
682.46	2616.546
682.79	2674.799
683.11	2623.827
683.44	2669.944
683.77	2631.109
684.09	2665.090
684.42	2631.109
684.74	2638.391
685.07	2551.011
685.39	2735.479
685.72	2665.090
686.04	2618.973
686.37	2635.963
686.69	2645.672
687.02	2665.090
687.34	2703.926
687.67	2655.381
687.99	2703.926
688.32	2742.761
688.64	2669.944
688.97	2669.944
689.29	2718.489
689.62	2665.090
689.94	2650.527
690.27	2725.771
690.59	2580.137
690.91	2628.682
691.24	2723.343
691.56	2643.245
691.89	2645.672
692.21	2650.527
692.54	2645.672
692.86	2699.071
693.18	2604.409
693.51	2611.691
693.83	2614.118
694.16	2737.907
694.48	2623.827
694.80	2682.081
695.13	2643.245
695.45	2604.409
695.78	2686.935
696.10	2667.517
696.42	2735.479
696.75	2599.555
697.07	2682.081
697.39	2645.672
697.72	2669.944
698.04	2626.254
698.36	2601.982
698.69	2560.719
699.01	2708.780
699.33	2638.391
699.66	2655.381
699.98	2648.099
700.30	2747.616
700.62	2696.644
700.95	2572.856
701.27	2660.236
701.59	2718.489
701.92	2623.827
702.24	2611.691
702.56	2711.207
702.88	2609.264
703.21	2716.062
703.53	2725.771
703.85	2623.827
704.17	2628.682
704.50	2640.818
704.82	2665.090
705.14	4111.714
705.46	2735.479
705.78	2684.508
706.11	2696.644
706.43	2606.837
706.75	2689.362
707.07	2684.508
707.39	2665.090
707.72	2718.489
708.04	2703.926
708.36	2633.536
708.68	2674.799
709.00	2747.616
709.32	2662.663
709.65	2679.653
709.97	2706.353
710.29	2674.799
710.61	2638.391
710.93	2725.771
711.25	2720.916
711.57	2606.837
711.90	2568.001
712.22	2679.653
712.54	2645.672
712.86	2711.207
713.18	2669.944
713.50	2563.147
713.82	2667.517
714.14	2708.780
714.46	2584.992
714.78	2575.283
715.10	2701.498
715.42	2674.799
715.75	2667.517
716.07	2648.099
716.39	2584.992
716.71	2677.226
717.03	2597.128
717.35	2635.963
717.67	2665.090
717.99	2711.207
718.31	2674.799
718.63	2699.071
718.95	2669.944
719.27	2592.273
719.59	2662.663
719.91	2742.761
720.23	2682.081
720.55	2716.062
720.87	2706.353
721.19	2633.536
721.51	2737.907
721.83	2667.517
722.15	2708.780
722.47	2694.217
722.78	2725.771
723.10	2638.391
723.42	2665.090
723.74	2720.916
724.06	2660.236
724.38	2694.217
724.70	2640.818
725.02	2597.128
725.34	2682.081
725.66	2677.226
725.98	2611.691
726.30	2706.353
726.61	2660.236
726.93	2735.479
727.25	2621.400
727.57	2725.771
727.89	2640.818
728.21	2691.789
728.53	2597.128
728.84	2643.245
729.16	2679.653
729.48	2735.479
729.80	2652.954
730.12	2674.799
730.44	2711.207
730.75	2599.555
731.07	2645.672
731.39	2643.245
731.71	2660.236
732.03	2716.062
732.34	2771.888
732.66	2597.128
732.98	2696.644
733.30	2716.062
733.62	2674.799
733.93	2616.546
734.25	2519.457
734.57	2587.419
734.89	2694.217
735.20	2669.944
735.52	2689.362
735.84	2631.109
736.16	2747.616
736.47	2650.527
736.79	2711.207
737.11	2638.391
737.42	2667.517
737.74	2667.517
738.06	2711.207
738.38	2633.536
738.69	2635.963
739.01	2631.109
739.33	2713.634
739.64	2677.226
739.96	2633.536
740.28	2660.236
740.59	2720.916
740.91	2679.653
741.23	2621.400
741.54	2662.663
741.86	2623.827
742.17	2589.846
742.49	2677.226
742.81	2716.062
743.12	2711.207
743.44	2672.372
743.76	2699.071
744.07	2742.761
744.39	2684.508
744.70	2657.808
745.02	2716.062
745.34	2628.682
745.65	2572.856
745.97	2669.944
746.28	2626.254
746.60	2631.109
746.91	2601.982
747.23	2599.555
747.55	2667.517
747.86	2699.071
748.18	2652.954
748.49	2682.081
748.81	2699.071
749.12	2655.381
749.44	2648.099
749.75	2725.771
750.07	2667.517
750.38	2589.846
750.70	2626.254
751.01	2694.217
751.33	2713.634
751.64	2635.963
751.96	2679.653
752.27	2601.982
752.59	2626.254
752.90	2645.672
753.22	2689.362
753.53	2662.663
753.84	2643.245
754.16	2699.071
754.47	2645.672
754.79	2672.372
755.10	2716.062
755.42	2657.808
755.73	2643.245
756.04	2655.381
756.36	2648.099
756.67	2684.508
756.99	2708.780
757.30	2720.916
757.61	2718.489
757.93	2757.324
758.24	2689.362
758.55	2633.536
758.87	2667.517
759.18	2657.808
759.50	2672.372
759.81	2657.808
760.12	2691.789
760.44	2684.508
760.75	2703.926
761.06	2730.625
761.38	2694.217
761.69	2594.701
762.00	2665.090
762.32	2650.527
762.63	2711.207
762.94	2601.982
763.25	2672.372
763.57	2694.217
763.88	2667.517
764.19	2686.935
764.51	2648.099
764.82	2740.334
765.13	2689.362
765.44	2699.071
765.76	2645.672
766.07	2606.837
766.38	2672.372
766.69	2759.752
767.01	2609.264
767.32	2645.672
767.63	2669.944
767.94	2682.081
768.25	2614.118
768.57	2597.128
768.88	2674.799
769.19	2716.062
769.50	2701.498
769.81	2667.517
770.13	2708.780
770.44	2645.672
770.75	2694.217
771.06	2696.644
771.37	2669.944
771.68	2686.935
772.00	2703.926
772.31	2684.508
772.62	2645.672
772.93	2667.517
773.24	2708.780
773.55	2694.217
773.86	2640.818
774.17	2606.837
774.49	2699.071
774.80	2599.555
775.11	2606.837
775.42	2638.391
775.73	2616.546
776.04	2628.682
776.35	2684.508
776.66	2708.780
776.97	2694.217
777.28	2674.799
777.59	2543.729
777.90	2635.963
778.21	2648.099
778.52	2708.780
778.83	2767.033
779.15	2628.682
779.46	2689.362
779.77	2631.109
780.08	2706.353
780.39	2662.663
780.70	2665.090
781.01	2638.391
781.32	2657.808
781.63	2694.217
781.94	2594.701
782.25	2684.508
782.56	2631.109
782.86	2650.527
783.17	2660.236
783.48	2735.479
783.79	2640.818
784.10	2701.498
784.41	2682.081
784.72	2750.043
785.03	2708.780
785.34	2546.156
785.65	2667.517
785.96	2720.916
786.27	2711.207
786.58	2691.789
786.89	2633.536
787.19	2679.653
787.50	2686.935
787.81	2652.954
788.12	2667.517
788.43	2682.081
788.74	2716.062
789.05	2689.362
789.36	2667.517
789.66	2669.944
789.97	2648.099
790.28	2626.254
790.59	2682.081
790.90	2601.982
791.21	2648.099
791.52	2679.653
791.82	2650.527
792.13	2633.536
792.44	2667.517
792.75	2728.198
793.06	2682.081
793.36	2638.391
793.67	2643.245
793.98	2621.400
794.29	2648.099
794.59	2691.789
794.90	2645.672
795.21	2686.935
795.52	2628.682
795.82	2674.799
796.13	2667.517
796.44	2703.926
796.75	2558.292
797.05	2631.109
797.36	2699.071
797.67	2665.090
797.98	2737.907
798.28	2747.616
798.59	2633.536
798.90	2667.517
799.20	2635.963
799.51	2604.409
799.82	2701.498
800.12	2682.081
800.43	2669.944
800.74	2699.071
801.04	2691.789
801.35	2652.954
801.66	2667.517
801.96	2682.081
802.27	2774.315
802.58	2672.372
802.88	2711.207
803.19	2592.273
803.50	2614.118
803.80	2626.254
804.11	2648.099
804.41	2682.081
804.72	2720.916
805.03	2633.536
805.33	2616.546
805.64	2713.634
805.94	2609.264
806.25	2652.954
806.56	2667.517
806.86	2674.799
807.17	2669.944
807.47	2660.236
807.78	2701.498
808.08	2592.273
808.39	2674.799
808.69	2662.663
809.00	2686.935
809.30	2628.682
809.61	2662.663
809.91	2684.508
810.22	2643.245
810.52	2635.963
810.83	2713.634
811.13	2662.663
811.44	2733.052
811.74	2706.353
812.05	2694.217
812.35	2674.799
812.66	2706.353
812.96	2635.963
813.27	2689.362
813.57	2708.780
813.88	2718.489
814.18	2635.963
814.49	2694.217
814.79	2672.372
815.09	2677.226
815.40	2643.245
815.70	2762.179
816.01	2718.489
816.31	2682.081
816.61	2718.489
816.92	2667.517
817.22	2645.672
817.53	2730.625
817.83	2672.372
818.13	2604.409
818.44	2592.273
818.74	2635.963
819.04	2730.625
819.35	2682.081
819.65	2682.081
819.95	2560.719
820.26	2616.546
820.56	2667.517
820.86	2667.517
821.17	2716.062
821.47	2621.400
821.77	2708.780
822.08	2684.508
822.38	2587.419
822.68	2635.963
822.99	2691.789
823.29	2706.353
823.59	2635.963
823.89	2606.837
824.20	2640.818
824.50	2657.808
824.80	2684.508
825.10	2679.653
825.41	2645.672
825.71	2604.409
826.01	2669.944
826.31	2655.381
826.62	2677.226
826.92	2694.217
827.22	2628.682
827.52	2720.916
827.82	2640.818
828.13	2674.799
828.43	2635.963
828.73	2631.109
829.03	2648.099
829.33	2667.517
829.64	2703.926
829.94	2728.198
830.24	2662.663
830.54	2703.926
830.84	2684.508
831.14	2640.818
831.45	2652.954
831.75	2584.992
832.05	2660.236
832.35	2616.546
832.65	2730.625
832.95	2672.372
833.25	2677.226
833.55	2628.682
833.85	2601.982
834.16	2667.517
834.46	2667.517
834.76	2679.653
835.06	2645.672
835.36	2682.081
835.66	2631.109
835.96	2592.273
836.26	2667.517
836.56	2587.419
836.86	2774.315
837.16	2652.954
837.46	2657.808
837.76	2728.198
838.06	2733.052
838.36	2703.926
838.66	2750.043
838.96	2694.217
839.26	2643.245
839.56	2669.944
839.86	2728.198
840.16	2560.719
840.46	2631.109
840.76	2623.827
841.06	2584.992
841.36	2623.827
841.66	2737.907
841.96	2677.226
842.26	2652.954
842.56	2628.682
842.86	2657.808
843.16	2696.644
843.46	2684.508
843.76	2657.808
844.06	2660.236
844.36	2626.254
844.66	2674.799
844.95	2621.400
845.25	2679.653
845.55	2682.081
845.85	2606.837
846.15	2708.780
846.45	2638.391
846.75	2667.517
847.05	2682.081
847.35	2631.109
847.64	2667.517
847.94	2669.944
848.24	2718.489
848.54	2677.226
848.84	2672.372
849.14	2703.926
849.43	2720.916
849.73	2686.935
850.03	2679.653
850.33	2711.207
850.63	2694.217
850.92	2623.827
851.22	2679.653
851.52	2633.536
851.82	2686.935
852.12	2684.508
852.41	2754.897
852.71	2740.334
853.01	2657.808
853.31	2708.780
853.60	2611.691
853.90	2635.963
854.20	2652.954
854.50	2689.362
854.79	2614.118
855.09	2633.536
855.39	2689.362
855.69	2618.973
855.98	2648.099
856.28	2609.264
856.58	2638.391
856.87	2633.536
857.17	2747.616
857.47	2650.527
857.76	2640.818
858.06	2655.381
858.36	2667.517
858.65	2589.846
858.95	2667.517
859.25	2609.264
859.54	2699.071
859.84	2626.254
860.14	2621.400
860.43	2669.944
860.73	2699.071
861.03	2643.245
861.32	2674.799
861.62	2672.372
861.91	2691.789
862.21	2638.391
862.51	2677.226
862.80	2635.963
863.10	2672.372
863.39	2686.935
863.69	2665.090
863.98	2684.508
864.28	2660.236
864.58	2706.353
864.87	2616.546
865.17	2723.343
865.46	2689.362
865.76	2672.372
866.05	2635.963
866.35	2669.944
866.64	2645.672
866.94	2672.372
867.23	2560.719
867.53	2640.818
867.82	2754.897
868.12	2718.489
868.41	2701.498
868.71	2699.071
869.00	2618.973
869.30	2606.837
869.59	2716.062
869.89	2662.663
870.18	2604.409
870.48	2655.381
870.77	2684.508
871.06	2640.818
871.36	2652.954
871.65	2706.353
871.95	2655.381
872.24	2645.672
872.54	2623.827
872.83	2623.827
873.12	2626.254
873.42	2713.634
873.71	2684.508
874.01	2686.935
874.30	2774.315
874.59	2684.508
874.89	2699.071
875.18	2626.254
875.47	2684.508
875.77	2713.634
876.06	2635.963
876.35	2638.391
876.65	2635.963
876.94	2631.109
877.23	2703.926
877.53	2669.944
877.82	2606.837
878.11	2718.489
878.41	2628.682
878.70	2616.546
878.99	2638.391
879.29	2597.128
879.58	2633.536
879.87	2626.254
880.16	2577.710
880.46	2650.527
880.75	2689.362
881.04	2740.334
881.34	2635.963
881.63	2660.236
881.92	2623.827
882.21	2648.099
882.50	2672.372
882.80	2631.109
883.09	2623.827
883.38	2648.099
883.67	2737.907
883.97	2609.264
884.26	2657.808
884.55	2716.062
884.84	2703.926
885.13	2691.789
885.43	2665.090
885.72	2621.400
886.01	2587.419
886.30	2737.907
886.59	2623.827
886.88	2679.653
887.17	2686.935
887.47	2713.634
887.76	2686.935
888.05	2614.118
888.34	2769.461
888.63	2769.461
888.92	2769.461
>>>>>End Spectral Data<<<<<
